BEGIN_SCAN_DATA
	FORMAT=CC-Export V1.9
	FILE_CREATION_DATE=10-Dec-2023 13:12:13
	LAST_MODIFIED=10-Dec-2023 13:12:13
	BEGIN_SCAN  1
		TASK_NAME=tba PDD Profiles
		PROGRAM=WaterTankScans
		MEAS_DATE=10-Dec-2023 12:48:35
		LINAC=Ethos1
		MODALITY=X
		ISOCENTER=1000.00
		INPLANE_AXIS=InplaneGT
		CROSSPLANE_AXIS=CrossplAB
		DEPTH_AXIS=Depth
		INPLANE_AXIS_DIR=GUN_TARGET
		CROSSPLANE_AXIS_DIR=LEFT_RIGHT
		DEPTH_AXIS_DIR=UP_DOWN
		ENERGY=6.00
		NOMINAL_DMAX=13.00
		SSD=900.00
		BLOCK=0
		WEDGE_ANGLE=0.00
		FIELD_INPLANE=80.00
		FIELD_CROSSPLANE=80.00
		FIELD_TYPE=RECTANGULAR
		GANTRY=0.00
		GANTRY_UPRIGHT_POSITION=0
		GANTRY_ROTATION=CW
		COLL_ANGLE=0.00
		COLL_OFFSET_INPLANE=0.00
		COLL_OFFSET_CROSSPLANE=0.00
		SCAN_DEVICE=BeamScan
		SCAN_DEVICE_SETUP=BARA_GUN_TARGET
		ELECTROMETER=BeamScan
		RANGE_FIELD=LOW
		RANGE_REFERENCE=LOW
		DETECTOR=THIMBLE_CHAMBER
		DETECTOR_SUBCODE=SEMIFLEX
		DETECTOR_RADIUS=2.40
		DETECTOR_NAME=PTW 31021 Semiflex 3D 668
		DETECTOR_SN=144668
		DETECTOR_CALIBRATION=500000000.00
		DETECTOR_IS_CALIBRATED=1
		DETECTOR_REFERENCE=THIMBLE_CHAMBER
		DETECTOR_REFERENCE_SUBCODE=SEMIFLEX
		DETECTOR_REFERENCE_RADIUS=2.40
		DETECTOR_REFERENCE_NAME=PTW 31021 Semiflex 3D 669
		DETECTOR_REFERENCE_SN=144669
		DETECTOR_REFERENCE_IS_CALIBRATED=0
		DETECTOR_REFERENCE_CALIBRATION=500000000.00
		DETECTOR_HV=400.0
		DETECTOR_REFERENCE_HV=400.0
		DETECTOR_ORIENTATION=HORIZONTAL
		FILTER=FFF
		SCAN_SPEED_PROFILE=2.00
		SCAN_PROF_SPEED_DEP=NONE
		SCAN_SPEED_PDD=2.00
		SCAN_PDD_SPEED_DEP=NONE
		DETECTOR_TYPE=T31021
		REF_FIELD_DEPTH=100.00
		REF_FIELD_DEFINED=ISOCENTER
		REF_FIELD_INPLANE=100.00
		REF_FIELD_CROSSPLANE=100.00
		REF_SCAN_POSITIONS=-120.00;-119.00;-118.00;-117.00;-116.00;-115.00;-114.00;-113.00;-112.00;-111.00;-110.00;-109.00;-108.00;-107.00;-106.00;-105.00;-104.00;-103.00;-102.00;-101.00;-100.00;-99.00;-98.00;-97.00;-96.00;-95.00;-94.00;-93.00;-92.00;-91.00;-90.00;-89.00;-88.00;-87.00;-86.00;-85.00;-84.00;-83.00;-82.00;-81.00;-80.00;-79.00;-78.00;-77.00;-76.00;-75.00;-74.00;-73.00;-72.00;-71.00;-70.00;-69.00;-68.00;-67.00;-66.00;-65.00;-64.00;-63.00;-62.00;-61.00;-60.00;-59.00;-58.00;-57.00;-56.00;-55.00;-54.00;-53.00;-52.00;-51.00;-50.00;-49.00;-48.00;-47.00;-46.00;-45.00;-44.00;-43.00;-42.00;-41.00;-40.00;-39.00;-38.00;-37.00;-36.00;-35.00;-34.00;-33.00;-32.00;-31.00;-30.00;-29.00;-28.00;-27.00;-26.00;-25.00;-24.00;-23.00;-22.00;-21.00;-20.00;-19.00;-18.00;-17.00;-16.00;-15.00;-14.00;-13.00;-12.00;-11.00;-10.00;-9.00;-8.00;-7.00;-6.00;-5.00;-4.00;-3.00;-2.00;-1.00;0.00;1.00;2.00;3.00;4.00;5.00;6.00;7.00;8.00;9.00;10.00;11.00;12.00;13.00;14.00;15.00;16.00;17.00;18.00;19.00;20.00;21.00;22.00;23.00;24.00;25.00;26.00;27.00;28.00;29.00;30.00;31.00;32.00;33.00;34.00;35.00;36.00;37.00;38.00;39.00;40.00;41.00;42.00;43.00;44.00;45.00;46.00;47.00;48.00;49.00;50.00;51.00;52.00;53.00;54.00;55.00;56.00;57.00;58.00;59.00;60.00;61.00;62.00;63.00;64.00;65.00;66.00;67.00;68.00;69.00;70.00;71.00;72.00;73.00;74.00;75.00;76.00;77.00;78.00;79.00;80.00;81.00;82.00;83.00;84.00;85.00;86.00;87.00;88.00;89.00;90.00;91.00;92.00;93.00;94.00;95.00;96.00;97.00;98.00;99.00;100.00;101.00;102.00;103.00;104.00;105.00;106.00;107.00;108.00;109.00;110.00;111.00;112.00;113.00;114.00;115.00;116.00;117.00;118.00;119.00;120.00;
		REF_OVERSCAN_FACTOR=1.00
		SCAN_CURVETYPE=INPLANE_PROFILE
		SCAN_DEPTH=13.00
		SCAN_OFFAXIS_INPLANE=0.00
		SCAN_OFFAXIS_CROSSPLANE=0.00
		SCAN_ANGLE=0.00
		SCAN_DIAGONAL=NOT_DIAGONAL
		SCAN_DIRECTION=POSITIVE
		MEAS_MEDIUM=WATER
		MEAS_PRESET=MEAS_CONTINUOUS_REFERENCE_SCAN
		MEAS_TIME=0.500
		MEAS_UNIT=A.U.
		PRESSURE=1005.64
		TEMPERATURE=22.23
		NORM_TEMPERATURE=20.00
		CORRECTION_FACTOR=1.0000
		EXPECTED_MAX_DOSE_RATE=3.00
		EPOM_DEPTH_SHIFT=0.0
		EPOM_MODE=TRUFIX
		BEGIN_DATA
			-101.00		4.0564E-03		14.266E+00
			-100.00		4.0777E-03		14.266E+00
			-99.00		4.1418E-03		14.266E+00
			-98.00		4.1640E-03		14.263E+00
			-97.00		4.2485E-03		14.266E+00
			-96.00		4.3126E-03		14.266E+00
			-95.00		4.3961E-03		14.272E+00
			-94.00		4.4824E-03		14.269E+00
			-93.00		4.5678E-03		14.269E+00
			-92.00		4.6765E-03		14.263E+00
			-91.00		4.7599E-03		14.269E+00
			-90.00		4.8260E-03		14.263E+00
			-89.00		4.9551E-03		14.260E+00
			-88.00		4.9947E-03		14.269E+00
			-87.00		5.1676E-03		14.263E+00
			-86.00		5.2744E-03		14.263E+00
			-85.00		5.4002E-03		14.269E+00
			-84.00		5.4441E-03		14.266E+00
			-83.00		5.5734E-03		14.263E+00
			-82.00		5.8308E-03		14.260E+00
			-81.00		5.8937E-03		14.263E+00
			-80.00		6.0205E-03		14.266E+00
			-79.00		6.1939E-03		14.260E+00
			-78.00		6.3207E-03		14.263E+00
			-77.00		6.5101E-03		14.269E+00
			-76.00		6.6823E-03		14.266E+00
			-75.00		6.8303E-03		14.269E+00
			-74.00		7.0453E-03		14.266E+00
			-73.00		7.2145E-03		14.269E+00
			-72.00		7.4295E-03		14.266E+00
			-71.00		7.5165E-03		14.263E+00
			-70.00		7.6857E-03		14.266E+00
			-69.00		7.7925E-03		14.266E+00
			-68.00		8.0717E-03		14.263E+00
			-67.00		8.2212E-03		14.263E+00
			-66.00		8.4098E-03		14.269E+00
			-65.00		8.6520E-03		14.257E+00
			-64.00		8.8794E-03		14.269E+00
			-63.00		9.1006E-03		14.257E+00
			-62.00		9.3276E-03		14.269E+00
			-61.00		9.6388E-03		14.251E+00
			-60.00		10.038E-03		14.260E+00
			-59.00		10.278E-03		14.254E+00
			-58.00		10.587E-03		14.269E+00
			-57.00		10.933E-03		14.263E+00
			-56.00		11.294E-03		14.266E+00
			-55.00		11.745E-03		14.263E+00
			-54.00		12.126E-03		14.266E+00
			-53.00		12.636E-03		14.269E+00
			-52.00		13.151E-03		14.266E+00
			-51.00		13.676E-03		14.275E+00
			-50.00		14.350E-03		14.263E+00
			-49.00		15.112E-03		14.269E+00
			-48.00		16.040E-03		14.260E+00
			-47.00		17.367E-03		14.275E+00
			-46.00		19.086E-03		14.266E+00
			-45.00		21.229E-03		14.275E+00
			-44.00		24.034E-03		14.269E+00
			-43.00		27.806E-03		14.272E+00
			-42.00		33.540E-03		14.266E+00
			-41.00		43.436E-03		14.269E+00
			-40.00		62.631E-03		14.263E+00
			-39.00		98.932E-03		14.260E+00
			-38.00		154.61E-03		14.272E+00
			-37.00		227.27E-03		14.272E+00
			-36.00		313.83E-03		14.266E+00
			-35.00		401.28E-03		14.269E+00
			-34.00		476.40E-03		14.263E+00
			-33.00		526.69E-03		14.266E+00
			-32.00		554.35E-03		14.263E+00
			-31.00		568.96E-03		14.266E+00
			-30.00		577.80E-03		14.269E+00
			-29.00		583.81E-03		14.263E+00
			-28.00		587.53E-03		14.266E+00
			-27.00		591.71E-03		14.263E+00
			-26.00		594.36E-03		14.266E+00
			-25.00		597.05E-03		14.263E+00
			-24.00		599.36E-03		14.254E+00
			-23.00		600.98E-03		14.266E+00
			-22.00		602.65E-03		14.272E+00
			-21.00		604.53E-03		14.263E+00
			-20.00		606.58E-03		14.260E+00
			-19.00		607.65E-03		14.260E+00
			-18.00		609.57E-03		14.260E+00
			-17.00		610.12E-03		14.272E+00
			-16.00		611.44E-03		14.266E+00
			-15.00		612.51E-03		14.266E+00
			-14.00		614.14E-03		14.263E+00
			-13.00		614.99E-03		14.263E+00
			-12.00		615.98E-03		14.260E+00
			-11.00		616.30E-03		14.272E+00
			-10.00		617.29E-03		14.269E+00
			-9.00		617.58E-03		14.272E+00
			-8.00		618.57E-03		14.269E+00
			-7.00		618.52E-03		14.275E+00
			-6.00		620.46E-03		14.260E+00
			-5.00		619.77E-03		14.266E+00
			-4.00		620.62E-03		14.266E+00
			-3.00		620.41E-03		14.266E+00
			-2.00		620.46E-03		14.260E+00
			-1.00		620.25E-03		14.260E+00
			0.00		621.10E-03		14.260E+00
			1.00		620.86E-03		14.251E+00
			2.00		620.70E-03		14.269E+00
			3.00		620.86E-03		14.251E+00
			4.00		620.76E-03		14.263E+00
			5.00		620.00E-03		14.251E+00
			6.00		619.82E-03		14.260E+00
			7.00		618.83E-03		14.263E+00
			8.00		618.33E-03		14.260E+00
			9.00		617.55E-03		14.263E+00
			10.00		616.57E-03		14.266E+00
			11.00		616.27E-03		14.263E+00
			12.00		614.65E-03		14.266E+00
			13.00		614.17E-03		14.272E+00
			14.00		613.02E-03		14.269E+00
			15.00		612.20E-03		14.278E+00
			16.00		610.72E-03		14.263E+00
			17.00		609.17E-03		14.284E+00
			18.00		608.50E-03		14.260E+00
			19.00		606.62E-03		14.269E+00
			20.00		604.91E-03		14.269E+00
			21.00		604.35E-03		14.272E+00
			22.00		602.05E-03		14.266E+00
			23.00		600.56E-03		14.266E+00
			24.00		598.85E-03		14.266E+00
			25.00		596.58E-03		14.269E+00
			26.00		594.24E-03		14.269E+00
			27.00		591.16E-03		14.266E+00
			28.00		587.32E-03		14.266E+00
			29.00		583.51E-03		14.260E+00
			30.00		577.41E-03		14.263E+00
			31.00		569.36E-03		14.272E+00
			32.00		554.56E-03		14.263E+00
			33.00		524.45E-03		14.263E+00
			34.00		472.15E-03		14.269E+00
			35.00		402.18E-03		14.260E+00
			36.00		317.46E-03		14.266E+00
			37.00		228.96E-03		14.260E+00
			38.00		148.52E-03		14.263E+00
			39.00		90.284E-03		14.263E+00
			40.00		57.289E-03		14.269E+00
			41.00		40.914E-03		14.263E+00
			42.00		31.817E-03		14.263E+00
			43.00		26.329E-03		14.263E+00
			44.00		22.490E-03		14.260E+00
			45.00		19.838E-03		14.263E+00
			46.00		18.019E-03		14.266E+00
			47.00		16.499E-03		14.269E+00
			48.00		15.393E-03		14.266E+00
			49.00		14.411E-03		14.266E+00
			50.00		13.581E-03		14.263E+00
			51.00		12.892E-03		14.269E+00
			52.00		12.254E-03		14.266E+00
			53.00		11.766E-03		14.263E+00
			54.00		11.320E-03		14.260E+00
			55.00		10.864E-03		14.269E+00
			56.00		10.440E-03		14.266E+00
			57.00		10.062E-03		14.257E+00
			58.00		9.7118E-03		14.269E+00
			59.00		9.3316E-03		14.263E+00
			60.00		9.0540E-03		14.263E+00
			61.00		8.8210E-03		14.260E+00
			62.00		8.5184E-03		14.266E+00
			63.00		8.2710E-03		14.251E+00
			64.00		8.0914E-03		14.266E+00
			65.00		7.8008E-03		14.251E+00
			66.00		7.5822E-03		14.260E+00
			67.00		7.4114E-03		14.260E+00
			68.00		7.2770E-03		14.272E+00
			69.00		7.0468E-03		14.263E+00
			70.00		6.8958E-03		14.266E+00
			71.00		6.7905E-03		14.263E+00
			72.00		6.6197E-03		14.263E+00
			73.00		6.5556E-03		14.263E+00
			74.00		6.4075E-03		14.260E+00
			75.00		6.2553E-03		14.266E+00
			76.00		6.0205E-03		14.266E+00
			77.00		5.8899E-03		14.272E+00
			78.00		5.8058E-03		14.269E+00
			79.00		5.6729E-03		14.281E+00
			80.00		5.6161E-03		14.263E+00
			81.00		5.4406E-03		14.275E+00
			82.00		5.3396E-03		14.260E+00
			83.00		5.2081E-03		14.269E+00
			84.00		5.1463E-03		14.263E+00
			85.00		5.0619E-03		14.260E+00
			86.00		4.9103E-03		14.266E+00
			87.00		4.8463E-03		14.266E+00
			88.00		4.7395E-03		14.266E+00
			89.00		4.6338E-03		14.263E+00
			90.00		4.5687E-03		14.266E+00
			91.00		4.4620E-03		14.266E+00
			92.00		4.3961E-03		14.272E+00
			93.00		4.3348E-03		14.263E+00
			94.00		4.2299E-03		14.257E+00
			95.00		4.1845E-03		14.266E+00
			96.00		4.0999E-03		14.263E+00
			97.00		4.0350E-03		14.266E+00
			98.00		3.9308E-03		14.257E+00
			99.00		3.8864E-03		14.263E+00
			100.00		3.8437E-03		14.263E+00
			101.00		3.7361E-03		14.266E+00
		END_DATA
	END_SCAN  1
	BEGIN_SCAN  2
		TASK_NAME=tba PDD Profiles
		PROGRAM=WaterTankScans
		MEAS_DATE=10-Dec-2023 12:50:34
		LINAC=Ethos1
		MODALITY=X
		ISOCENTER=1000.00
		INPLANE_AXIS=InplaneGT
		CROSSPLANE_AXIS=CrossplAB
		DEPTH_AXIS=Depth
		INPLANE_AXIS_DIR=GUN_TARGET
		CROSSPLANE_AXIS_DIR=LEFT_RIGHT
		DEPTH_AXIS_DIR=UP_DOWN
		ENERGY=6.00
		NOMINAL_DMAX=13.00
		SSD=900.00
		BLOCK=0
		WEDGE_ANGLE=0.00
		FIELD_INPLANE=80.00
		FIELD_CROSSPLANE=80.00
		FIELD_TYPE=RECTANGULAR
		GANTRY=0.00
		GANTRY_UPRIGHT_POSITION=0
		GANTRY_ROTATION=CW
		COLL_ANGLE=0.00
		COLL_OFFSET_INPLANE=0.00
		COLL_OFFSET_CROSSPLANE=0.00
		SCAN_DEVICE=BeamScan
		SCAN_DEVICE_SETUP=BARA_GUN_TARGET
		ELECTROMETER=BeamScan
		RANGE_FIELD=LOW
		RANGE_REFERENCE=LOW
		DETECTOR=THIMBLE_CHAMBER
		DETECTOR_SUBCODE=SEMIFLEX
		DETECTOR_RADIUS=2.40
		DETECTOR_NAME=PTW 31021 Semiflex 3D 668
		DETECTOR_SN=144668
		DETECTOR_CALIBRATION=500000000.00
		DETECTOR_IS_CALIBRATED=1
		DETECTOR_REFERENCE=THIMBLE_CHAMBER
		DETECTOR_REFERENCE_SUBCODE=SEMIFLEX
		DETECTOR_REFERENCE_RADIUS=2.40
		DETECTOR_REFERENCE_NAME=PTW 31021 Semiflex 3D 669
		DETECTOR_REFERENCE_SN=144669
		DETECTOR_REFERENCE_IS_CALIBRATED=0
		DETECTOR_REFERENCE_CALIBRATION=500000000.00
		DETECTOR_HV=400.0
		DETECTOR_REFERENCE_HV=400.0
		DETECTOR_ORIENTATION=HORIZONTAL
		FILTER=FFF
		SCAN_SPEED_PROFILE=2.00
		SCAN_PROF_SPEED_DEP=NONE
		SCAN_SPEED_PDD=2.00
		SCAN_PDD_SPEED_DEP=NONE
		DETECTOR_TYPE=T31021
		REF_FIELD_DEPTH=100.00
		REF_FIELD_DEFINED=ISOCENTER
		REF_FIELD_INPLANE=100.00
		REF_FIELD_CROSSPLANE=100.00
		REF_SCAN_POSITIONS=-120.00;-119.00;-118.00;-117.00;-116.00;-115.00;-114.00;-113.00;-112.00;-111.00;-110.00;-109.00;-108.00;-107.00;-106.00;-105.00;-104.00;-103.00;-102.00;-101.00;-100.00;-99.00;-98.00;-97.00;-96.00;-95.00;-94.00;-93.00;-92.00;-91.00;-90.00;-89.00;-88.00;-87.00;-86.00;-85.00;-84.00;-83.00;-82.00;-81.00;-80.00;-79.00;-78.00;-77.00;-76.00;-75.00;-74.00;-73.00;-72.00;-71.00;-70.00;-69.00;-68.00;-67.00;-66.00;-65.00;-64.00;-63.00;-62.00;-61.00;-60.00;-59.00;-58.00;-57.00;-56.00;-55.00;-54.00;-53.00;-52.00;-51.00;-50.00;-49.00;-48.00;-47.00;-46.00;-45.00;-44.00;-43.00;-42.00;-41.00;-40.00;-39.00;-38.00;-37.00;-36.00;-35.00;-34.00;-33.00;-32.00;-31.00;-30.00;-29.00;-28.00;-27.00;-26.00;-25.00;-24.00;-23.00;-22.00;-21.00;-20.00;-19.00;-18.00;-17.00;-16.00;-15.00;-14.00;-13.00;-12.00;-11.00;-10.00;-9.00;-8.00;-7.00;-6.00;-5.00;-4.00;-3.00;-2.00;-1.00;0.00;1.00;2.00;3.00;4.00;5.00;6.00;7.00;8.00;9.00;10.00;11.00;12.00;13.00;14.00;15.00;16.00;17.00;18.00;19.00;20.00;21.00;22.00;23.00;24.00;25.00;26.00;27.00;28.00;29.00;30.00;31.00;32.00;33.00;34.00;35.00;36.00;37.00;38.00;39.00;40.00;41.00;42.00;43.00;44.00;45.00;46.00;47.00;48.00;49.00;50.00;51.00;52.00;53.00;54.00;55.00;56.00;57.00;58.00;59.00;60.00;61.00;62.00;63.00;64.00;65.00;66.00;67.00;68.00;69.00;70.00;71.00;72.00;73.00;74.00;75.00;76.00;77.00;78.00;79.00;80.00;81.00;82.00;83.00;84.00;85.00;86.00;87.00;88.00;89.00;90.00;91.00;92.00;93.00;94.00;95.00;96.00;97.00;98.00;99.00;100.00;101.00;102.00;103.00;104.00;105.00;106.00;107.00;108.00;109.00;110.00;111.00;112.00;113.00;114.00;115.00;116.00;117.00;118.00;119.00;120.00;
		REF_OVERSCAN_FACTOR=1.00
		SCAN_CURVETYPE=CROSSPLANE_PROFILE
		SCAN_DEPTH=13.00
		SCAN_OFFAXIS_INPLANE=0.00
		SCAN_OFFAXIS_CROSSPLANE=0.00
		SCAN_ANGLE=0.00
		SCAN_DIAGONAL=NOT_DIAGONAL
		SCAN_DIRECTION=POSITIVE
		MEAS_MEDIUM=WATER
		MEAS_PRESET=MEAS_CONTINUOUS_REFERENCE_SCAN
		MEAS_TIME=0.500
		MEAS_UNIT=A.U.
		PRESSURE=1005.65
		TEMPERATURE=22.26
		NORM_TEMPERATURE=20.00
		CORRECTION_FACTOR=1.0000
		EXPECTED_MAX_DOSE_RATE=3.00
		EPOM_DEPTH_SHIFT=0.0
		EPOM_MODE=TRUFIX
		BEGIN_DATA
			-101.00		3.8034E-03		14.255E+00
			-100.00		3.8897E-03		14.252E+00
			-99.00		3.9547E-03		14.249E+00
			-98.00		4.0607E-03		14.252E+00
			-97.00		4.1026E-03		14.255E+00
			-96.00		4.1462E-03		14.252E+00
			-95.00		4.2735E-03		14.255E+00
			-94.00		4.3190E-03		14.246E+00
			-93.00		4.4026E-03		14.252E+00
			-92.00		4.5076E-03		14.258E+00
			-91.00		4.6183E-03		14.246E+00
			-90.00		4.6795E-03		14.255E+00
			-89.00		4.7446E-03		14.252E+00
			-88.00		4.8504E-03		14.255E+00
			-87.00		4.9562E-03		14.258E+00
			-86.00		5.0032E-03		14.246E+00
			-85.00		5.1496E-03		14.255E+00
			-84.00		5.2598E-03		14.246E+00
			-83.00		5.3419E-03		14.255E+00
			-82.00		5.4950E-03		14.246E+00
			-81.00		5.6410E-03		14.255E+00
			-80.00		5.7277E-03		14.252E+00
			-79.00		5.8786E-03		14.249E+00
			-78.00		5.9427E-03		14.249E+00
			-77.00		6.1150E-03		14.246E+00
			-76.00		6.2206E-03		14.249E+00
			-75.00		6.3502E-03		14.246E+00
			-74.00		6.4544E-03		14.252E+00
			-73.00		6.6282E-03		14.246E+00
			-72.00		6.7521E-03		14.255E+00
			-71.00		6.9017E-03		14.255E+00
			-70.00		7.1184E-03		14.249E+00
			-69.00		7.2039E-03		14.249E+00
			-68.00		7.4407E-03		14.246E+00
			-67.00		7.6101E-03		14.249E+00
			-66.00		7.8041E-03		14.246E+00
			-65.00		8.0393E-03		14.246E+00
			-64.00		8.2692E-03		14.255E+00
			-63.00		8.4883E-03		14.246E+00
			-62.00		8.7839E-03		14.252E+00
			-61.00		9.0267E-03		14.240E+00
			-60.00		9.3630E-03		14.249E+00
			-59.00		9.6471E-03		14.240E+00
			-58.00		10.026E-03		14.249E+00
			-57.00		10.434E-03		14.246E+00
			-56.00		10.707E-03		14.252E+00
			-55.00		11.166E-03		14.240E+00
			-54.00		11.691E-03		14.252E+00
			-53.00		12.123E-03		14.246E+00
			-52.00		12.719E-03		14.249E+00
			-51.00		13.358E-03		14.252E+00
			-50.00		14.100E-03		14.258E+00
			-49.00		15.000E-03		14.255E+00
			-48.00		16.029E-03		14.252E+00
			-47.00		17.318E-03		14.264E+00
			-46.00		19.060E-03		14.255E+00
			-45.00		21.188E-03		14.261E+00
			-44.00		24.114E-03		14.261E+00
			-43.00		28.620E-03		14.261E+00
			-42.00		35.392E-03		14.252E+00
			-41.00		46.956E-03		14.258E+00
			-40.00		69.338E-03		14.255E+00
			-39.00		110.83E-03		14.255E+00
			-38.00		174.23E-03		14.252E+00
			-37.00		254.81E-03		14.261E+00
			-36.00		342.66E-03		14.258E+00
			-35.00		424.57E-03		14.255E+00
			-34.00		488.99E-03		14.252E+00
			-33.00		532.05E-03		14.255E+00
			-32.00		556.53E-03		14.252E+00
			-31.00		570.09E-03		14.255E+00
			-30.00		578.33E-03		14.252E+00
			-29.00		583.58E-03		14.249E+00
			-28.00		587.95E-03		14.252E+00
			-27.00		590.90E-03		14.258E+00
			-26.00		593.93E-03		14.252E+00
			-25.00		596.71E-03		14.252E+00
			-24.00		598.80E-03		14.258E+00
			-23.00		601.11E-03		14.249E+00
			-22.00		602.56E-03		14.255E+00
			-21.00		604.49E-03		14.255E+00
			-20.00		606.46E-03		14.249E+00
			-19.00		607.82E-03		14.252E+00
			-18.00		608.68E-03		14.252E+00
			-17.00		610.30E-03		14.249E+00
			-16.00		611.19E-03		14.258E+00
			-15.00		612.52E-03		14.252E+00
			-14.00		613.89E-03		14.255E+00
			-13.00		614.87E-03		14.252E+00
			-12.00		615.86E-03		14.249E+00
			-11.00		616.58E-03		14.252E+00
			-10.00		617.09E-03		14.255E+00
			-9.00		618.00E-03		14.249E+00
			-8.00		618.67E-03		14.258E+00
			-7.00		619.10E-03		14.258E+00
			-6.00		619.87E-03		14.255E+00
			-5.00		620.35E-03		14.249E+00
			-4.00		620.68E-03		14.261E+00
			-3.00		620.94E-03		14.255E+00
			-2.00		621.29E-03		14.252E+00
			-1.00		621.90E-03		14.243E+00
			0.00		620.81E-03		14.258E+00
			1.00		621.69E-03		14.243E+00
			2.00		621.02E-03		14.258E+00
			3.00		621.31E-03		14.237E+00
			4.00		620.03E-03		14.261E+00
			5.00		620.27E-03		14.246E+00
			6.00		619.66E-03		14.255E+00
			7.00		619.63E-03		14.246E+00
			8.00		619.31E-03		14.258E+00
			9.00		618.08E-03		14.252E+00
			10.00		617.65E-03		14.252E+00
			11.00		616.88E-03		14.255E+00
			12.00		615.38E-03		14.255E+00
			13.00		614.61E-03		14.258E+00
			14.00		613.68E-03		14.255E+00
			15.00		612.82E-03		14.255E+00
			16.00		612.01E-03		14.249E+00
			17.00		609.74E-03		14.267E+00
			18.00		608.84E-03		14.258E+00
			19.00		607.34E-03		14.273E+00
			20.00		605.64E-03		14.258E+00
			21.00		604.44E-03		14.261E+00
			22.00		603.04E-03		14.249E+00
			23.00		600.51E-03		14.258E+00
			24.00		598.63E-03		14.252E+00
			25.00		596.15E-03		14.255E+00
			26.00		594.14E-03		14.252E+00
			27.00		590.85E-03		14.249E+00
			28.00		586.88E-03		14.252E+00
			29.00		582.05E-03		14.255E+00
			30.00		575.85E-03		14.255E+00
			31.00		565.63E-03		14.249E+00
			32.00		547.77E-03		14.252E+00
			33.00		516.89E-03		14.249E+00
			34.00		466.24E-03		14.255E+00
			35.00		394.57E-03		14.258E+00
			36.00		309.83E-03		14.255E+00
			37.00		223.41E-03		14.261E+00
			38.00		149.10E-03		14.255E+00
			39.00		93.484E-03		14.258E+00
			40.00		59.479E-03		14.252E+00
			41.00		42.027E-03		14.249E+00
			42.00		32.707E-03		14.258E+00
			43.00		27.051E-03		14.255E+00
			44.00		23.317E-03		14.252E+00
			45.00		20.684E-03		14.255E+00
			46.00		18.650E-03		14.258E+00
			47.00		17.179E-03		14.255E+00
			48.00		15.940E-03		14.255E+00
			49.00		14.915E-03		14.255E+00
			50.00		14.103E-03		14.255E+00
			51.00		13.330E-03		14.258E+00
			52.00		12.778E-03		14.255E+00
			53.00		12.246E-03		14.252E+00
			54.00		11.669E-03		14.252E+00
			55.00		11.258E-03		14.258E+00
			56.00		10.705E-03		14.255E+00
			57.00		10.451E-03		14.252E+00
			58.00		10.028E-03		14.246E+00
			59.00		9.6795E-03		14.255E+00
			60.00		9.3550E-03		14.261E+00
			61.00		9.1026E-03		14.255E+00
			62.00		8.7607E-03		14.255E+00
			63.00		8.4847E-03		14.252E+00
			64.00		8.2906E-03		14.255E+00
			65.00		8.0376E-03		14.249E+00
			66.00		7.8239E-03		14.249E+00
			67.00		7.6545E-03		14.246E+00
			68.00		7.4786E-03		14.255E+00
			69.00		7.2712E-03		14.243E+00
			70.00		7.1123E-03		14.261E+00
			71.00		6.9231E-03		14.255E+00
			72.00		6.7949E-03		14.255E+00
			73.00		6.6681E-03		14.252E+00
			74.00		6.4957E-03		14.255E+00
			75.00		6.3662E-03		14.258E+00
			76.00		6.2406E-03		14.252E+00
			77.00		6.1085E-03		14.261E+00
			78.00		5.9829E-03		14.255E+00
			79.00		5.8736E-03		14.261E+00
			80.00		5.7466E-03		14.258E+00
			81.00		5.6576E-03		14.267E+00
			82.00		5.5128E-03		14.255E+00
			83.00		5.3800E-03		14.267E+00
			84.00		5.2778E-03		14.255E+00
			85.00		5.1709E-03		14.255E+00
			86.00		5.0438E-03		14.252E+00
			87.00		5.0182E-03		14.264E+00
			88.00		4.8728E-03		14.252E+00
			89.00		4.7629E-03		14.261E+00
			90.00		4.6795E-03		14.255E+00
			91.00		4.6154E-03		14.255E+00
			92.00		4.4872E-03		14.255E+00
			93.00		4.4026E-03		14.252E+00
			94.00		4.3172E-03		14.252E+00
			95.00		4.2103E-03		14.252E+00
			96.00		4.1898E-03		14.249E+00
			97.00		4.1676E-03		14.252E+00
			98.00		4.0590E-03		14.258E+00
			99.00		3.9752E-03		14.252E+00
			100.00		3.9103E-03		14.255E+00
			101.00		3.8453E-03		14.258E+00
		END_DATA
	END_SCAN  2
	BEGIN_SCAN  3
		TASK_NAME=tba PDD Profiles
		PROGRAM=WaterTankScans
		MEAS_DATE=10-Dec-2023 12:54:53
		LINAC=Ethos1
		MODALITY=X
		ISOCENTER=1000.00
		INPLANE_AXIS=InplaneGT
		CROSSPLANE_AXIS=CrossplAB
		DEPTH_AXIS=Depth
		INPLANE_AXIS_DIR=GUN_TARGET
		CROSSPLANE_AXIS_DIR=LEFT_RIGHT
		DEPTH_AXIS_DIR=UP_DOWN
		ENERGY=6.00
		NOMINAL_DMAX=13.00
		SSD=900.00
		BLOCK=0
		WEDGE_ANGLE=0.00
		FIELD_INPLANE=80.00
		FIELD_CROSSPLANE=80.00
		FIELD_TYPE=RECTANGULAR
		GANTRY=0.00
		GANTRY_UPRIGHT_POSITION=0
		GANTRY_ROTATION=CW
		COLL_ANGLE=0.00
		COLL_OFFSET_INPLANE=0.00
		COLL_OFFSET_CROSSPLANE=0.00
		SCAN_DEVICE=BeamScan
		SCAN_DEVICE_SETUP=BARA_GUN_TARGET
		ELECTROMETER=BeamScan
		RANGE_FIELD=LOW
		RANGE_REFERENCE=LOW
		DETECTOR=THIMBLE_CHAMBER
		DETECTOR_SUBCODE=SEMIFLEX
		DETECTOR_RADIUS=2.40
		DETECTOR_NAME=PTW 31021 Semiflex 3D 668
		DETECTOR_SN=144668
		DETECTOR_CALIBRATION=500000000.00
		DETECTOR_IS_CALIBRATED=1
		DETECTOR_REFERENCE=THIMBLE_CHAMBER
		DETECTOR_REFERENCE_SUBCODE=SEMIFLEX
		DETECTOR_REFERENCE_RADIUS=2.40
		DETECTOR_REFERENCE_NAME=PTW 31021 Semiflex 3D 669
		DETECTOR_REFERENCE_SN=144669
		DETECTOR_REFERENCE_IS_CALIBRATED=0
		DETECTOR_REFERENCE_CALIBRATION=500000000.00
		DETECTOR_HV=400.0
		DETECTOR_REFERENCE_HV=400.0
		DETECTOR_ORIENTATION=HORIZONTAL
		FILTER=FFF
		SCAN_SPEED_PROFILE=2.00
		SCAN_PROF_SPEED_DEP=NONE
		SCAN_SPEED_PDD=2.00
		SCAN_PDD_SPEED_DEP=NONE
		DETECTOR_TYPE=T31021
		REF_FIELD_DEPTH=100.00
		REF_FIELD_DEFINED=ISOCENTER
		REF_FIELD_INPLANE=100.00
		REF_FIELD_CROSSPLANE=100.00
		REF_SCAN_POSITIONS=-120.00;-119.00;-118.00;-117.00;-116.00;-115.00;-114.00;-113.00;-112.00;-111.00;-110.00;-109.00;-108.00;-107.00;-106.00;-105.00;-104.00;-103.00;-102.00;-101.00;-100.00;-99.00;-98.00;-97.00;-96.00;-95.00;-94.00;-93.00;-92.00;-91.00;-90.00;-89.00;-88.00;-87.00;-86.00;-85.00;-84.00;-83.00;-82.00;-81.00;-80.00;-79.00;-78.00;-77.00;-76.00;-75.00;-74.00;-73.00;-72.00;-71.00;-70.00;-69.00;-68.00;-67.00;-66.00;-65.00;-64.00;-63.00;-62.00;-61.00;-60.00;-59.00;-58.00;-57.00;-56.00;-55.00;-54.00;-53.00;-52.00;-51.00;-50.00;-49.00;-48.00;-47.00;-46.00;-45.00;-44.00;-43.00;-42.00;-41.00;-40.00;-39.00;-38.00;-37.00;-36.00;-35.00;-34.00;-33.00;-32.00;-31.00;-30.00;-29.00;-28.00;-27.00;-26.00;-25.00;-24.00;-23.00;-22.00;-21.00;-20.00;-19.00;-18.00;-17.00;-16.00;-15.00;-14.00;-13.00;-12.00;-11.00;-10.00;-9.00;-8.00;-7.00;-6.00;-5.00;-4.00;-3.00;-2.00;-1.00;0.00;1.00;2.00;3.00;4.00;5.00;6.00;7.00;8.00;9.00;10.00;11.00;12.00;13.00;14.00;15.00;16.00;17.00;18.00;19.00;20.00;21.00;22.00;23.00;24.00;25.00;26.00;27.00;28.00;29.00;30.00;31.00;32.00;33.00;34.00;35.00;36.00;37.00;38.00;39.00;40.00;41.00;42.00;43.00;44.00;45.00;46.00;47.00;48.00;49.00;50.00;51.00;52.00;53.00;54.00;55.00;56.00;57.00;58.00;59.00;60.00;61.00;62.00;63.00;64.00;65.00;66.00;67.00;68.00;69.00;70.00;71.00;72.00;73.00;74.00;75.00;76.00;77.00;78.00;79.00;80.00;81.00;82.00;83.00;84.00;85.00;86.00;87.00;88.00;89.00;90.00;91.00;92.00;93.00;94.00;95.00;96.00;97.00;98.00;99.00;100.00;101.00;102.00;103.00;104.00;105.00;106.00;107.00;108.00;109.00;110.00;111.00;112.00;113.00;114.00;115.00;116.00;117.00;118.00;119.00;120.00;
		REF_OVERSCAN_FACTOR=1.00
		SCAN_CURVETYPE=INPLANE_PROFILE
		SCAN_DEPTH=50.00
		SCAN_OFFAXIS_INPLANE=0.00
		SCAN_OFFAXIS_CROSSPLANE=0.00
		SCAN_ANGLE=0.00
		SCAN_DIAGONAL=NOT_DIAGONAL
		SCAN_DIRECTION=POSITIVE
		MEAS_MEDIUM=WATER
		MEAS_PRESET=MEAS_CONTINUOUS_REFERENCE_SCAN
		MEAS_TIME=0.500
		MEAS_UNIT=A.U.
		PRESSURE=1005.54
		TEMPERATURE=22.26
		NORM_TEMPERATURE=20.00
		CORRECTION_FACTOR=1.0000
		EXPECTED_MAX_DOSE_RATE=3.00
		EPOM_DEPTH_SHIFT=0.0
		EPOM_MODE=TRUFIX
		BEGIN_DATA
			-105.00		4.4862E-03		14.260E+00
			-104.00		4.5756E-03		14.248E+00
			-103.00		4.6631E-03		14.242E+00
			-102.00		4.7639E-03		14.260E+00
			-101.00		4.8353E-03		14.238E+00
			-100.00		4.9156E-03		14.254E+00
			-99.00		5.0460E-03		14.248E+00
			-98.00		5.1090E-03		14.251E+00
			-97.00		5.2362E-03		14.254E+00
			-96.00		5.3205E-03		14.257E+00
			-95.00		5.4499E-03		14.254E+00
			-94.00		5.5567E-03		14.254E+00
			-93.00		5.7503E-03		14.251E+00
			-92.00		5.8773E-03		14.254E+00
			-91.00		5.9603E-03		14.260E+00
			-90.00		6.1338E-03		14.254E+00
			-89.00		6.2794E-03		14.263E+00
			-88.00		6.4757E-03		14.254E+00
			-87.00		6.6197E-03		14.266E+00
			-86.00		6.7507E-03		14.260E+00
			-85.00		6.8943E-03		14.272E+00
			-84.00		7.1596E-03		14.254E+00
			-83.00		7.3259E-03		14.263E+00
			-82.00		7.5855E-03		14.257E+00
			-81.00		7.7514E-03		14.266E+00
			-80.00		7.9932E-03		14.254E+00
			-79.00		8.1803E-03		14.263E+00
			-78.00		8.4206E-03		14.254E+00
			-77.00		8.6557E-03		14.254E+00
			-76.00		8.9957E-03		14.257E+00
			-75.00		9.2074E-03		14.260E+00
			-74.00		9.4658E-03		14.257E+00
			-73.00		9.7884E-03		14.254E+00
			-72.00		10.064E-03		14.257E+00
			-71.00		10.363E-03		14.257E+00
			-70.00		10.641E-03		14.257E+00
			-69.00		11.002E-03		14.260E+00
			-68.00		11.349E-03		14.254E+00
			-67.00		11.736E-03		14.251E+00
			-66.00		12.073E-03		14.257E+00
			-65.00		12.521E-03		14.257E+00
			-64.00		12.930E-03		14.254E+00
			-63.00		13.400E-03		14.254E+00
			-62.00		13.910E-03		14.257E+00
			-61.00		14.402E-03		14.257E+00
			-60.00		14.951E-03		14.263E+00
			-59.00		15.584E-03		14.251E+00
			-58.00		16.246E-03		14.251E+00
			-57.00		16.980E-03		14.263E+00
			-56.00		17.692E-03		14.257E+00
			-55.00		18.450E-03		14.266E+00
			-54.00		19.274E-03		14.257E+00
			-53.00		20.261E-03		14.254E+00
			-52.00		21.239E-03		14.257E+00
			-51.00		22.486E-03		14.266E+00
			-50.00		23.649E-03		14.260E+00
			-49.00		25.315E-03		14.260E+00
			-48.00		27.195E-03		14.260E+00
			-47.00		29.581E-03		14.263E+00
			-46.00		32.215E-03		14.260E+00
			-45.00		35.662E-03		14.257E+00
			-44.00		40.188E-03		14.266E+00
			-43.00		47.019E-03		14.254E+00
			-42.00		58.889E-03		14.257E+00
			-41.00		80.864E-03		14.248E+00
			-40.00		116.50E-03		14.269E+00
			-39.00		165.01E-03		14.242E+00
			-38.00		224.41E-03		14.254E+00
			-37.00		288.71E-03		14.245E+00
			-36.00		350.58E-03		14.251E+00
			-35.00		399.10E-03		14.251E+00
			-34.00		431.81E-03		14.251E+00
			-33.00		449.96E-03		14.245E+00
			-32.00		460.35E-03		14.254E+00
			-31.00		467.41E-03		14.254E+00
			-30.00		472.44E-03		14.257E+00
			-29.00		476.70E-03		14.251E+00
			-28.00		479.80E-03		14.254E+00
			-27.00		482.60E-03		14.266E+00
			-26.00		485.79E-03		14.254E+00
			-25.00		487.83E-03		14.263E+00
			-24.00		489.74E-03		14.257E+00
			-23.00		491.67E-03		14.269E+00
			-22.00		494.02E-03		14.257E+00
			-21.00		495.41E-03		14.272E+00
			-20.00		497.22E-03		14.251E+00
			-19.00		498.19E-03		14.272E+00
			-18.00		500.00E-03		14.251E+00
			-17.00		501.39E-03		14.254E+00
			-16.00		502.57E-03		14.251E+00
			-15.00		503.42E-03		14.263E+00
			-14.00		504.81E-03		14.254E+00
			-13.00		505.98E-03		14.257E+00
			-12.00		506.52E-03		14.260E+00
			-11.00		507.58E-03		14.260E+00
			-10.00		508.22E-03		14.260E+00
			-9.00		508.55E-03		14.257E+00
			-8.00		509.73E-03		14.248E+00
			-7.00		509.93E-03		14.260E+00
			-6.00		510.36E-03		14.260E+00
			-5.00		510.68E-03		14.257E+00
			-4.00		511.11E-03		14.257E+00
			-3.00		511.00E-03		14.260E+00
			-2.00		511.22E-03		14.254E+00
			-1.00		511.11E-03		14.257E+00
			0.00		511.86E-03		14.254E+00
			1.00		511.54E-03		14.257E+00
			2.00		511.54E-03		14.257E+00
			3.00		511.00E-03		14.260E+00
			4.00		510.90E-03		14.257E+00
			5.00		510.68E-03		14.257E+00
			6.00		509.72E-03		14.260E+00
			7.00		509.29E-03		14.260E+00
			8.00		508.87E-03		14.254E+00
			9.00		508.44E-03		14.254E+00
			10.00		507.70E-03		14.251E+00
			11.00		506.62E-03		14.263E+00
			12.00		505.56E-03		14.257E+00
			13.00		505.24E-03		14.254E+00
			14.00		503.95E-03		14.260E+00
			15.00		502.88E-03		14.260E+00
			16.00		501.92E-03		14.251E+00
			17.00		500.43E-03		14.263E+00
			18.00		499.47E-03		14.254E+00
			19.00		497.43E-03		14.251E+00
			20.00		496.37E-03		14.257E+00
			21.00		494.98E-03		14.254E+00
			22.00		493.06E-03		14.260E+00
			23.00		491.34E-03		14.248E+00
			24.00		489.53E-03		14.257E+00
			25.00		487.80E-03		14.238E+00
			26.00		485.04E-03		14.257E+00
			27.00		482.57E-03		14.242E+00
			28.00		480.03E-03		14.260E+00
			29.00		476.59E-03		14.248E+00
			30.00		472.65E-03		14.257E+00
			31.00		467.61E-03		14.248E+00
			32.00		461.32E-03		14.257E+00
			33.00		450.76E-03		14.260E+00
			34.00		432.66E-03		14.251E+00
			35.00		400.38E-03		14.251E+00
			36.00		352.63E-03		14.263E+00
			37.00		294.81E-03		14.260E+00
			38.00		229.11E-03		14.254E+00
			39.00		165.16E-03		14.269E+00
			40.00		111.96E-03		14.260E+00
			41.00		76.862E-03		14.272E+00
			42.00		57.051E-03		14.257E+00
			43.00		46.499E-03		14.269E+00
			44.00		39.795E-03		14.254E+00
			45.00		35.199E-03		14.263E+00
			46.00		31.660E-03		14.260E+00
			47.00		29.176E-03		14.263E+00
			48.00		26.816E-03		14.257E+00
			49.00		25.117E-03		14.263E+00
			50.00		23.611E-03		14.257E+00
			51.00		22.149E-03		14.263E+00
			52.00		21.073E-03		14.254E+00
			53.00		19.923E-03		14.251E+00
			54.00		18.957E-03		14.254E+00
